H(ft)   Q(ft3/s)
0.2	0.3695811443
0.4	1.0901333333
0.6	2.1124399542
0.8	3.4846222177
1	4.8994221882
1.2	6.4404577229
1.4	8.1159043157
1.6	9.9157333333
1.8	11.8318763482
2	13.8576586126
2.5	19.3666666667
3	25.4581444728
3.5	32.0809286372
4	39.1953775052
4.5	46.7695978174
5	54.7772053159
5.5	63.1958993747

